#******************************
#Please Enter 1 for BigInt Addition
#Please Enter 2 for BigInt Multiplication
#Control + C to quit
#******************************
#Please enter 2 large integers up to 1000 digits:
# * 
# Correctness Check for BigInts Variant
# Column Headers
# N     Time(T)
4    0.000856
8    0.001752
12    0.00256
16    0.003359
20    0.004139
24    0.004927
28    0.005742
32    0.006543
36    0.007454
40    0.008303
44    0.009136
48    0.009969
52    0.010803
56    0.011697
60    0.012565
64    0.013404
68    0.014237
72    0.015067
76    0.015886
80    0.016397
84    0.017283
88    0.018057
92    0.018881
96    0.019767
100    0.02063
104    0.021522
108    0.022355
112    0.023197
116    0.024028
120    0.024907
124    0.025737
128    0.026571
132    0.027396
136    0.028295
140    0.029123
144    0.029948
148    0.03073
152    0.031604
156    0.032449
160    0.033371
164    0.034157
168    0.034993
172    0.035821
176    0.036649
180    0.041102
184    0.041503
188    0.041949
192    0.042401
196    0.042847
200    0.043343
